    Angle	RCS(dBm^2)
 -180.0000	   32.6326
 -179.0000	   32.6112
 -178.0000	   32.5471
 -177.0000	   32.4400
 -176.0000	   32.2896
 -175.0000	   32.0955
 -174.0000	   31.8571
 -173.0000	   31.5735
 -172.0000	   31.2439
 -171.0000	   30.8671
 -170.0000	   30.4418
 -169.0000	   29.9665
 -168.0000	   29.4392
 -167.0000	   28.8578
 -166.0000	   28.2199
 -165.0000	   27.5225
 -164.0000	   26.7624
 -163.0000	   25.9359
 -162.0000	   25.0385
 -161.0000	   24.0660
 -160.0000	   23.0136
 -159.0000	   21.8769
 -158.0000	   20.6537
 -157.0000	   19.3455
 -156.0000	   17.9634
 -155.0000	   16.5367
 -154.0000	   15.1271
 -153.0000	   13.8427
 -152.0000	   12.8318
 -151.0000	   12.2243
 -150.0000	   12.0440
 -149.0000	   12.1887
 -148.0000	   12.5067
 -147.0000	   12.8726
 -146.0000	   13.2095
 -145.0000	   13.4785
 -144.0000	   13.6634
 -143.0000	   13.7601
 -142.0000	   13.7705
 -141.0000	   13.6990
 -140.0000	   13.5516
 -139.0000	   13.3348
 -138.0000	   13.0560
 -137.0000	   12.7232
 -136.0000	   12.3457
 -135.0000	   11.9346
 -134.0000	   11.5028
 -133.0000	   11.0659
 -132.0000	   10.6415
 -131.0000	   10.2490
 -130.0000	    9.9076
 -129.0000	    9.6343
 -128.0000	    9.4408
 -127.0000	    9.3317
 -126.0000	    9.3038
 -125.0000	    9.3471
 -124.0000	    9.4476
 -123.0000	    9.5894
 -122.0000	    9.7575
 -121.0000	    9.9388
 -120.0000	   10.1230
 -119.0000	   10.3022
 -118.0000	   10.4710
 -117.0000	   10.6260
 -116.0000	   10.7651
 -115.0000	   10.8875
 -114.0000	   10.9931
 -113.0000	   11.0826
 -112.0000	   11.1569
 -111.0000	   11.2173
 -110.0000	   11.2652
 -109.0000	   11.3021
 -108.0000	   11.3296
 -107.0000	   11.3492
 -106.0000	   11.3625
 -105.0000	   11.3709
 -104.0000	   11.3758
 -103.0000	   11.3785
 -102.0000	   11.3801
 -101.0000	   11.3816
 -100.0000	   11.3840
  -99.0000	   11.3881
  -98.0000	   11.3946
  -97.0000	   11.4040
  -96.0000	   11.4167
  -95.0000	   11.4333
  -94.0000	   11.4537
  -93.0000	   11.4784
  -92.0000	   11.5074
  -91.0000	   11.5406
  -90.0000	   11.5782
  -89.0000	   11.6201
  -88.0000	   11.6661
  -87.0000	   11.7162
  -86.0000	   11.7703
  -85.0000	   11.8282
  -84.0000	   11.8897
  -83.0000	   11.9548
  -82.0000	   12.0232
  -81.0000	   12.0949
  -80.0000	   12.1697
  -79.0000	   12.2475
  -78.0000	   12.3281
  -77.0000	   12.4114
  -76.0000	   12.4973
  -75.0000	   12.5857
  -74.0000	   12.6765
  -73.0000	   12.7696
  -72.0000	   12.8649
  -71.0000	   12.9624
  -70.0000	   13.0620
  -69.0000	   13.1637
  -68.0000	   13.2673
  -67.0000	   13.3728
  -66.0000	   13.4802
  -65.0000	   13.5895
  -64.0000	   13.7006
  -63.0000	   13.8135
  -62.0000	   13.9282
  -61.0000	   14.0447
  -60.0000	   14.1629
  -59.0000	   14.2828
  -58.0000	   14.4045
  -57.0000	   14.5278
  -56.0000	   14.6529
  -55.0000	   14.7796
  -54.0000	   14.9078
  -53.0000	   15.0377
  -52.0000	   15.1691
  -51.0000	   15.3019
  -50.0000	   15.4362
  -49.0000	   15.5719
  -48.0000	   15.7089
  -47.0000	   15.8472
  -46.0000	   15.9867
  -45.0000	   16.1275
  -44.0000	   16.2695
  -43.0000	   16.4128
  -42.0000	   16.5574
  -41.0000	   16.7034
  -40.0000	   16.8511
  -39.0000	   17.0006
  -38.0000	   17.1524
  -37.0000	   17.3065
  -36.0000	   17.4636
  -35.0000	   17.6240
  -34.0000	   17.7882
  -33.0000	   17.9568
  -32.0000	   18.1302
  -31.0000	   18.3089
  -30.0000	   18.4934
  -29.0000	   18.6839
  -28.0000	   18.8808
  -27.0000	   19.0840
  -26.0000	   19.2935
  -25.0000	   19.5091
  -24.0000	   19.7302
  -23.0000	   19.9562
  -22.0000	   20.1863
  -21.0000	   20.4192
  -20.0000	   20.6539
  -19.0000	   20.8891
  -18.0000	   21.1232
  -17.0000	   21.3549
  -16.0000	   21.5826
  -15.0000	   21.8047
  -14.0000	   22.0198
  -13.0000	   22.2265
  -12.0000	   22.4234
  -11.0000	   22.6092
  -10.0000	   22.7827
   -9.0000	   22.9428
   -8.0000	   23.0886
   -7.0000	   23.2192
   -6.0000	   23.3338
   -5.0000	   23.4318
   -4.0000	   23.5126
   -3.0000	   23.5757
   -2.0000	   23.6209
   -1.0000	   23.6479
    0.0000	   23.6565
    1.0000	   23.6468
    2.0000	   23.6186
    3.0000	   23.5722
    4.0000	   23.5078
    5.0000	   23.4258
    6.0000	   23.3265
    7.0000	   23.2106
    8.0000	   23.0787
    9.0000	   22.9316
   10.0000	   22.7700
   11.0000	   22.5951
   12.0000	   22.4079
   13.0000	   22.2095
   14.0000	   22.0013
   15.0000	   21.7847
   16.0000	   21.5611
   17.0000	   21.3320
   18.0000	   21.0989
   19.0000	   20.8635
   20.0000	   20.6271
   21.0000	   20.3913
   22.0000	   20.1574
   23.0000	   19.9266
   24.0000	   19.7000
   25.0000	   19.4785
   26.0000	   19.2626
   27.0000	   19.0530
   28.0000	   18.8499
   29.0000	   18.6533
   30.0000	   18.4631
   31.0000	   18.2792
   32.0000	   18.1010
   33.0000	   17.9282
   34.0000	   17.7603
   35.0000	   17.5968
   36.0000	   17.4370
   37.0000	   17.2805
   38.0000	   17.1268
   39.0000	   16.9756
   40.0000	   16.8264
   41.0000	   16.6789
   42.0000	   16.5329
   43.0000	   16.3883
   44.0000	   16.2450
   45.0000	   16.1028
   46.0000	   15.9618
   47.0000	   15.8219
   48.0000	   15.6831
   49.0000	   15.5456
   50.0000	   15.4094
   51.0000	   15.2745
   52.0000	   15.1410
   53.0000	   15.0089
   54.0000	   14.8784
   55.0000	   14.7495
   56.0000	   14.6222
   57.0000	   14.4965
   58.0000	   14.3725
   59.0000	   14.2503
   60.0000	   14.1298
   61.0000	   14.0110
   62.0000	   13.8940
   63.0000	   13.7789
   64.0000	   13.6655
   65.0000	   13.5539
   66.0000	   13.4442
   67.0000	   13.3363
   68.0000	   13.2305
   69.0000	   13.1265
   70.0000	   13.0245
   71.0000	   12.9245
   72.0000	   12.8267
   73.0000	   12.7310
   74.0000	   12.6376
   75.0000	   12.5465
   76.0000	   12.4578
   77.0000	   12.3716
   78.0000	   12.2880
   79.0000	   12.2072
   80.0000	   12.1291
   81.0000	   12.0541
   82.0000	   11.9822
   83.0000	   11.9135
   84.0000	   11.8482
   85.0000	   11.7865
   86.0000	   11.7285
   87.0000	   11.6744
   88.0000	   11.6242
   89.0000	   11.5781
   90.0000	   11.5363
   91.0000	   11.4988
   92.0000	   11.4656
   93.0000	   11.4369
   94.0000	   11.4124
   95.0000	   11.3922
   96.0000	   11.3761
   97.0000	   11.3637
   98.0000	   11.3548
   99.0000	   11.3490
  100.0000	   11.3455
  101.0000	   11.3438
  102.0000	   11.3430
  103.0000	   11.3423
  104.0000	   11.3405
  105.0000	   11.3366
  106.0000	   11.3292
  107.0000	   11.3170
  108.0000	   11.2985
  109.0000	   11.2721
  110.0000	   11.2365
  111.0000	   11.1899
  112.0000	   11.1308
  113.0000	   11.0579
  114.0000	   10.9698
  115.0000	   10.8656
  116.0000	   10.7448
  117.0000	   10.6073
  118.0000	   10.4541
  119.0000	   10.2871
  120.0000	   10.1100
  121.0000	    9.9280
  122.0000	    9.7490
  123.0000	    9.5833
  124.0000	    9.4441
  125.0000	    9.3461
  126.0000	    9.3052
  127.0000	    9.3354
  128.0000	    9.4464
  129.0000	    9.6412
  130.0000	    9.9153
  131.0000	   10.2570
  132.0000	   10.6494
  133.0000	   11.0734
  134.0000	   11.5098
  135.0000	   11.9408
  136.0000	   12.3513
  137.0000	   12.7281
  138.0000	   13.0602
  139.0000	   13.3385
  140.0000	   13.5548
  141.0000	   13.7017
  142.0000	   13.7729
  143.0000	   13.7622
  144.0000	   13.6653
  145.0000	   13.4804
  146.0000	   13.2115
  147.0000	   12.8748
  148.0000	   12.5092
  149.0000	   12.1917
  150.0000	   12.0476
  151.0000	   12.2284
  152.0000	   12.8360
  153.0000	   13.8466
  154.0000	   15.1304
  155.0000	   16.5395
  156.0000	   17.9656
  157.0000	   19.3472
  158.0000	   20.6551
  159.0000	   21.8780
  160.0000	   23.0144
  161.0000	   24.0668
  162.0000	   25.0392
  163.0000	   25.9363
  164.0000	   26.7628
  165.0000	   27.5228
  166.0000	   28.2201
  167.0000	   28.8580
  168.0000	   29.4393
  169.0000	   29.9666
  170.0000	   30.4419
  171.0000	   30.8672
  172.0000	   31.2439
  173.0000	   31.5736
  174.0000	   31.8571
  175.0000	   32.0956
  176.0000	   32.2897
  177.0000	   32.4400
  178.0000	   32.5471
  179.0000	   32.6113
  180.0000	   32.6326
